#== Filter Data - Lambda 9 Spectrophotometer ==
#  Kitt Peak National Observatory - NOAO
#------------------------------------------------
#Filter: SDSS R #719 P4 .5/60/0.5 22.9C
#Date: 03/22/02   Time: 11:16:24  Operator: JDV
#cwl=  6292.28A  fwhm= 1475.17A  Tmax= 92.83% at  6465.00A
#Tcutoff=  2.00 %  Slitsize =  5 A
#fwhm spans 5554.69A to 7029.86A
#90%  spans 5708.57A to 7013.76A
#bw90 is  0.885; Tmin90/Tmax is  0.810
#No data smoothing
#
#Npts=  391     Disp=  5.00A/Interval
#*****
  5300.00    -0.005
  5305.00    -0.005
  5310.00    -0.005
  5315.00    -0.005
  5320.00    -0.005
  5325.00     0.000
  5330.00     0.000
  5335.00     0.000
  5340.00    -0.005
  5345.00    -0.005
  5350.00     0.000
  5355.00    -0.005
  5360.00     0.000
  5365.00    -0.005
  5370.00     0.000
  5375.00     0.005
  5380.00     0.005
  5385.00     0.015
  5390.00     0.030
  5395.00     0.055
  5400.00     0.090
  5405.00     0.155
  5410.00     0.245
  5415.00     0.385
  5420.00     0.565
  5425.00     0.810
  5430.00     1.140
  5435.00     1.580
  5440.00     2.100
  5445.00     2.765
  5450.00     3.570
  5455.00     4.510
  5460.00     5.570
  5465.00     6.800
  5470.00     8.185
  5475.00     9.755
  5480.00    11.480
  5485.00    13.340
  5490.00    15.330
  5495.00    17.500
  5500.00    19.745
  5505.00    22.150
  5510.00    24.650
  5515.00    27.025
  5520.00    29.650
  5525.00    32.130
  5530.00    34.665
  5535.00    37.165
  5540.00    39.600
  5545.00    42.035
  5550.00    44.405
  5555.00    46.550
  5560.00    48.690
  5565.00    50.695
  5570.00    52.615
  5575.00    54.435
  5580.00    56.165
  5585.00    57.835
  5590.00    59.565
  5595.00    61.100
  5600.00    62.600
  5605.00    64.150
  5610.00    65.600
  5615.00    66.790
  5620.00    68.185
  5625.00    69.365
  5630.00    70.630
  5635.00    71.775
  5640.00    72.995
  5645.00    74.085
  5650.00    75.270
  5655.00    76.205
  5660.00    77.180
  5665.00    78.170
  5670.00    79.015
  5675.00    79.680
  5680.00    80.370
  5685.00    81.120
  5690.00    81.815
  5695.00    82.235
  5700.00    82.860
  5705.00    83.230
  5710.00    83.680
  5715.00    84.005
  5720.00    84.350
  5725.00    84.690
  5730.00    85.090
  5735.00    85.295
  5740.00    85.500
  5745.00    86.030
  5750.00    86.160
  5755.00    86.420
  5760.00    86.645
  5765.00    86.875
  5770.00    87.110
  5775.00    87.115
  5780.00    87.220
  5785.00    87.530
  5790.00    87.485
  5795.00    87.440
  5800.00    87.590
  5805.00    87.270
  5810.00    87.380
  5815.00    87.305
  5820.00    87.040
  5825.00    86.810
  5830.00    86.785
  5835.00    86.495
  5840.00    86.185
  5845.00    85.985
  5850.00    85.845
  5855.00    85.450
  5860.00    85.510
  5865.00    85.275
  5870.00    85.185
  5875.00    85.085
  5880.00    85.100
  5885.00    85.165
  5890.00    85.100
  5895.00    85.260
  5900.00    85.360
  5905.00    85.695
  5910.00    86.110
  5915.00    86.405
  5920.00    86.730
  5925.00    87.160
  5930.00    87.525
  5935.00    87.995
  5940.00    88.325
  5945.00    88.730
  5950.00    89.325
  5955.00    89.600
  5960.00    90.000
  5965.00    90.210
  5970.00    90.715
  5975.00    90.945
  5980.00    91.160
  5985.00    91.170
  5990.00    91.375
  5995.00    91.315
  6000.00    91.205
  6005.00    91.070
  6010.00    91.060
  6015.00    90.930
  6020.00    90.750
  6025.00    90.485
  6030.00    90.225
  6035.00    89.850
  6040.00    89.760
  6045.00    89.455
  6050.00    89.030
  6055.00    88.640
  6060.00    88.620
  6065.00    88.370
  6070.00    88.310
  6075.00    88.050
  6080.00    88.000
  6085.00    87.990
  6090.00    87.765
  6095.00    88.000
  6100.00    88.095
  6105.00    88.175
  6110.00    88.285
  6115.00    88.365
  6120.00    88.540
  6125.00    88.720
  6130.00    88.960
  6135.00    89.270
  6140.00    89.450
  6145.00    89.770
  6150.00    90.110
  6155.00    90.255
  6160.00    90.415
  6165.00    90.785
  6170.00    91.150
  6175.00    91.315
  6180.00    91.430
  6185.00    91.685
  6190.00    91.730
  6195.00    92.145
  6200.00    92.045
  6205.00    92.270
  6210.00    92.270
  6215.00    92.220
  6220.00    92.335
  6225.00    92.470
  6230.00    92.230
  6235.00    91.915
  6240.00    91.910
  6245.00    91.715
  6250.00    91.500
  6255.00    91.145
  6260.00    91.095
  6265.00    90.730
  6270.00    90.420
  6275.00    89.975
  6280.00    89.760
  6285.00    89.235
  6290.00    89.125
  6295.00    88.765
  6300.00    88.270
  6305.00    88.140
  6310.00    87.760
  6315.00    87.440
  6320.00    87.200
  6325.00    87.020
  6330.00    86.670
  6335.00    86.580
  6340.00    86.365
  6345.00    86.200
  6350.00    86.270
  6355.00    86.040
  6360.00    86.335
  6365.00    86.020
  6370.00    86.415
  6375.00    86.450
  6380.00    86.965
  6385.00    87.060
  6390.00    87.500
  6395.00    87.725
  6400.00    88.175
  6405.00    88.675
  6410.00    89.115
  6415.00    89.615
  6420.00    90.075
  6425.00    90.360
  6430.00    90.945
  6435.00    91.415
  6440.00    91.950
  6445.00    92.010
  6450.00    92.335
  6455.00    92.590
  6460.00    92.570
  6465.00    92.835
  6470.00    92.585
  6475.00    92.665
  6480.00    92.585
  6485.00    92.130
  6490.00    91.965
  6495.00    91.550
  6500.00    91.185
  6505.00    90.870
  6510.00    90.250
  6515.00    89.910
  6520.00    89.350
  6525.00    88.760
  6530.00    88.335
  6535.00    87.730
  6540.00    87.310
  6545.00    86.790
  6550.00    86.255
  6555.00    86.115
  6560.00    85.800
  6565.00    85.530
  6570.00    85.435
  6575.00    85.245
  6580.00    85.245
  6585.00    85.355
  6590.00    85.550
  6595.00    85.665
  6600.00    85.920
  6605.00    86.040
  6610.00    86.500
  6615.00    86.705
  6620.00    86.965
  6625.00    87.330
  6630.00    87.675
  6635.00    88.110
  6640.00    88.135
  6645.00    88.615
  6650.00    88.910
  6655.00    89.135
  6660.00    89.460
  6665.00    89.125
  6670.00    89.400
  6675.00    89.485
  6680.00    89.325
  6685.00    89.285
  6690.00    88.970
  6695.00    88.565
  6700.00    88.490
  6705.00    88.160
  6710.00    87.865
  6715.00    87.795
  6720.00    87.505
  6725.00    87.265
  6730.00    86.850
  6735.00    86.650
  6740.00    86.655
  6745.00    86.260
  6750.00    86.350
  6755.00    86.195
  6760.00    86.025
  6765.00    86.180
  6770.00    86.125
  6775.00    85.860
  6780.00    85.915
  6785.00    85.670
  6790.00    85.640
  6795.00    85.740
  6800.00    85.390
  6805.00    85.035
  6810.00    84.505
  6815.00    83.995
  6820.00    83.340
  6825.00    82.585
  6830.00    82.060
  6835.00    81.605
  6840.00    80.370
  6845.00    79.645
  6850.00    79.020
  6855.00    78.045
  6860.00    77.420
  6865.00    76.955
  6870.00    76.390
  6875.00    75.700
  6880.00    75.450
  6885.00    75.155
  6890.00    75.190
  6895.00    75.360
  6900.00    75.495
  6905.00    75.820
  6910.00    75.870
  6915.00    76.420
  6920.00    77.050
  6925.00    77.605
  6930.00    78.045
  6935.00    78.460
  6940.00    78.890
  6945.00    79.005
  6950.00    79.150
  6955.00    79.475
  6960.00    79.585
  6965.00    79.565
  6970.00    79.885
  6975.00    80.270
  6980.00    81.255
  6985.00    82.375
  6990.00    84.065
  6995.00    85.980
  7000.00    87.960
  7005.00    88.870
  7010.00    87.585
  7015.00    82.215
  7020.00    72.870
  7025.00    60.160
  7030.00    46.020
  7035.00    33.265
  7040.00    23.365
  7045.00    16.165
  7050.00    11.120
  7055.00     7.760
  7060.00     5.460
  7065.00     3.910
  7070.00     2.815
  7075.00     2.055
  7080.00     1.525
  7085.00     1.130
  7090.00     0.850
  7095.00     0.640
  7100.00     0.485
  7105.00     0.365
  7110.00     0.290
  7115.00     0.235
  7120.00     0.180
  7125.00     0.140
  7130.00     0.115
  7135.00     0.090
  7140.00     0.075
  7145.00     0.060
  7150.00     0.050
  7155.00     0.035
  7160.00     0.030
  7165.00     0.025
  7170.00     0.020
  7175.00     0.015
  7180.00     0.015
  7185.00     0.015
  7190.00     0.010
  7195.00     0.010
  7200.00     0.005
  7205.00     0.005
  7210.00     0.005
  7215.00     0.000
  7220.00     0.005
  7225.00     0.000
  7230.00     0.000
  7235.00     0.000
  7240.00     0.000
  7245.00     0.000
  7250.00     0.000

