#== Filter Data - Lambda 9 Spectrophotometer ==
#  Kitt Peak National Observatory - NOAO
#------------------------------------------------
#Filter: SDSS I #366 P4 .5/60/0.5 24.4C
#Date: 03/22/02   Time: 11:39:55  Operator: JDV
#cwl=  7726.28A  fwhm= 1539.89A  Tmax= 95.17% at  7800.00A
#Tcutoff=  2.00 %  Slitsize =  5 A
#fwhm spans 6956.33A to 8496.23A
#90%  spans 7182.85A to 8481.15A
#bw90 is  0.843; Tmin90/Tmax is  0.623
#No data smoothing
#
#Npts=  441     Disp=  5.00A/Interval
#*****
  6500.00     0.000
  6505.00     0.000
  6510.00    -0.005
  6515.00     0.000
  6520.00     0.000
  6525.00    -0.005
  6530.00    -0.005
  6535.00     0.000
  6540.00     0.000
  6545.00    -0.005
  6550.00     0.000
  6555.00    -0.005
  6560.00    -0.005
  6565.00     0.000
  6570.00     0.000
  6575.00     0.000
  6580.00     0.000
  6585.00     0.000
  6590.00     0.000
  6595.00     0.000
  6600.00     0.000
  6605.00     0.000
  6610.00     0.000
  6615.00     0.005
  6620.00     0.005
  6625.00     0.005
  6630.00     0.010
  6635.00     0.010
  6640.00     0.015
  6645.00     0.020
  6650.00     0.025
  6655.00     0.035
  6660.00     0.040
  6665.00     0.050
  6670.00     0.065
  6675.00     0.080
  6680.00     0.100
  6685.00     0.125
  6690.00     0.155
  6695.00     0.190
  6700.00     0.230
  6705.00     0.285
  6710.00     0.350
  6715.00     0.415
  6720.00     0.500
  6725.00     0.610
  6730.00     0.735
  6735.00     0.870
  6740.00     1.035
  6745.00     1.235
  6750.00     1.455
  6755.00     1.710
  6760.00     1.990
  6765.00     2.340
  6770.00     2.710
  6775.00     3.115
  6780.00     3.585
  6785.00     4.125
  6790.00     4.705
  6795.00     5.375
  6800.00     6.040
  6805.00     6.820
  6810.00     7.640
  6815.00     8.550
  6820.00     9.500
  6825.00    10.570
  6830.00    11.595
  6835.00    12.785
  6840.00    13.935
  6845.00    15.235
  6850.00    16.485
  6855.00    17.845
  6860.00    19.195
  6865.00    20.765
  6870.00    22.030
  6875.00    23.435
  6880.00    24.910
  6885.00    26.465
  6890.00    28.000
  6895.00    29.505
  6900.00    31.050
  6905.00    32.650
  6910.00    34.110
  6915.00    35.595
  6920.00    37.140
  6925.00    38.540
  6930.00    40.125
  6935.00    41.640
  6940.00    43.090
  6945.00    44.470
  6950.00    46.000
  6955.00    47.205
  6960.00    48.630
  6965.00    49.825
  6970.00    51.190
  6975.00    52.315
  6980.00    53.475
  6985.00    54.880
  6990.00    55.800
  6995.00    57.100
  7000.00    58.020
  7005.00    59.215
  7010.00    60.370
  7015.00    61.015
  7020.00    62.070
  7025.00    62.995
  7030.00    63.770
  7035.00    64.590
  7040.00    65.485
  7045.00    66.370
  7050.00    67.240
  7055.00    68.230
  7060.00    68.845
  7065.00    69.545
  7070.00    70.415
  7075.00    71.200
  7080.00    72.005
  7085.00    72.575
  7090.00    73.330
  7095.00    74.005
  7100.00    74.890
  7105.00    75.640
  7110.00    76.210
  7115.00    76.855
  7120.00    77.665
  7125.00    78.550
  7130.00    78.940
  7135.00    80.140
  7140.00    80.540
  7145.00    81.165
  7150.00    81.835
  7155.00    82.765
  7160.00    83.160
  7165.00    83.740
  7170.00    84.210
  7175.00    84.860
  7180.00    85.325
  7185.00    85.900
  7190.00    86.010
  7195.00    86.565
  7200.00    86.970
  7205.00    87.070
  7210.00    87.510
  7215.00    87.620
  7220.00    87.870
  7225.00    87.925
  7230.00    88.090
  7235.00    87.845
  7240.00    87.985
  7245.00    87.910
  7250.00    88.185
  7255.00    88.205
  7260.00    88.125
  7265.00    88.050
  7270.00    87.460
  7275.00    87.890
  7280.00    87.660
  7285.00    87.250
  7290.00    87.235
  7295.00    87.185
  7300.00    86.930
  7305.00    86.805
  7310.00    86.665
  7315.00    86.500
  7320.00    86.465
  7325.00    86.470
  7330.00    86.375
  7335.00    86.235
  7340.00    86.440
  7345.00    86.495
  7350.00    86.500
  7355.00    85.980
  7360.00    86.735
  7365.00    86.855
  7370.00    86.920
  7375.00    87.100
  7380.00    87.135
  7385.00    87.645
  7390.00    87.635
  7395.00    87.735
  7400.00    88.465
  7405.00    88.555
  7410.00    88.645
  7415.00    89.510
  7420.00    89.335
  7425.00    89.905
  7430.00    90.230
  7435.00    90.555
  7440.00    90.910
  7445.00    91.465
  7450.00    91.375
  7455.00    92.130
  7460.00    92.120
  7465.00    92.945
  7470.00    92.995
  7475.00    93.265
  7480.00    93.850
  7485.00    93.650
  7490.00    93.810
  7495.00    94.200
  7500.00    94.545
  7505.00    94.230
  7510.00    94.425
  7515.00    94.290
  7520.00    94.910
  7525.00    94.810
  7530.00    94.635
  7535.00    94.640
  7540.00    94.890
  7545.00    94.655
  7550.00    94.435
  7555.00    94.625
  7560.00    93.950
  7565.00    94.045
  7570.00    93.270
  7575.00    93.340
  7580.00    93.540
  7585.00    93.435
  7590.00    92.690
  7595.00    92.705
  7600.00    92.520
  7605.00    92.155
  7610.00    91.870
  7615.00    91.815
  7620.00    91.910
  7625.00    91.340
  7630.00    91.485
  7635.00    91.420
  7640.00    91.190
  7645.00    90.955
  7650.00    90.685
  7655.00    90.840
  7660.00    91.215
  7665.00    90.875
  7670.00    91.205
  7675.00    91.270
  7680.00    91.670
  7685.00    90.705
  7690.00    91.225
  7695.00    91.450
  7700.00    91.850
  7705.00    91.640
  7710.00    91.985
  7715.00    91.950
  7720.00    92.880
  7725.00    92.705
  7730.00    93.345
  7735.00    93.235
  7740.00    93.345
  7745.00    93.780
  7750.00    93.685
  7755.00    94.415
  7760.00    94.745
  7765.00    94.195
  7770.00    94.930
  7775.00    94.940
  7780.00    94.750
  7785.00    95.145
  7790.00    94.715
  7795.00    94.930
  7800.00    95.170
  7805.00    94.785
  7810.00    94.350
  7815.00    94.655
  7820.00    94.145
  7825.00    94.585
  7830.00    94.200
  7835.00    93.755
  7840.00    93.070
  7845.00    93.045
  7850.00    92.840
  7855.00    92.850
  7860.00    92.455
  7865.00    91.630
  7870.00    90.750
  7875.00    90.575
  7880.00    90.650
  7885.00    90.335
  7890.00    90.395
  7895.00    89.795
  7900.00    89.505
  7905.00    89.205
  7910.00    89.680
  7915.00    88.995
  7920.00    88.945
  7925.00    88.720
  7930.00    88.720
  7935.00    88.915
  7940.00    88.430
  7945.00    88.560
  7950.00    88.470
  7955.00    88.205
  7960.00    88.130
  7965.00    88.470
  7970.00    88.810
  7975.00    88.625
  7980.00    87.680
  7985.00    88.075
  7990.00    88.580
  7995.00    88.315
  8000.00    88.705
  8005.00    88.860
  8010.00    88.645
  8015.00    88.765
  8020.00    89.300
  8025.00    88.955
  8030.00    89.245
  8035.00    89.345
  8040.00    88.650
  8045.00    88.655
  8050.00    89.050
  8055.00    89.230
  8060.00    88.470
  8065.00    88.750
  8070.00    88.725
  8075.00    88.725
  8080.00    89.055
  8085.00    89.135
  8090.00    89.200
  8095.00    89.515
  8100.00    88.980
  8105.00    88.910
  8110.00    88.755
  8115.00    89.295
  8120.00    89.315
  8125.00    89.970
  8130.00    89.210
  8135.00    89.545
  8140.00    89.340
  8145.00    89.995
  8150.00    89.350
  8155.00    90.050
  8160.00    90.615
  8165.00    89.765
  8170.00    89.900
  8175.00    90.145
  8180.00    89.490
  8185.00    89.010
  8190.00    90.450
  8195.00    90.430
  8200.00    89.405
  8205.00    89.075
  8210.00    89.590
  8215.00    89.855
  8220.00    88.605
  8225.00    88.500
  8230.00    88.030
  8235.00    88.230
  8240.00    87.895
  8245.00    86.730
  8250.00    86.940
  8255.00    86.405
  8260.00    86.130
  8265.00    85.385
  8270.00    85.715
  8275.00    85.285
  8280.00    85.645
  8285.00    87.270
  8290.00    86.160
  8295.00    85.615
  8300.00    86.320
  8305.00    86.575
  8310.00    86.800
  8315.00    87.730
  8320.00    88.135
  8325.00    87.535
  8330.00    87.605
  8335.00    85.875
  8340.00    86.800
  8345.00    87.330
  8350.00    85.375
  8355.00    84.595
  8360.00    82.220
  8365.00    82.040
  8370.00    80.105
  8375.00    78.515
  8380.00    75.310
  8385.00    72.950
  8390.00    70.405
  8395.00    68.865
  8400.00    67.200
  8405.00    65.240
  8410.00    63.080
  8415.00    61.735
  8420.00    61.495
  8425.00    59.295
  8430.00    60.500
  8435.00    60.390
  8440.00    62.320
  8445.00    63.525
  8450.00    67.005
  8455.00    71.345
  8460.00    75.210
  8465.00    81.270
  8470.00    86.675
  8475.00    91.035
  8480.00    87.045
  8485.00    80.980
  8490.00    66.350
  8495.00    51.145
  8500.00    36.625
  8505.00    25.800
  8510.00    18.525
  8515.00    12.780
  8520.00     9.215
  8525.00     6.775
  8530.00     4.935
  8535.00     3.570
  8540.00     2.795
  8545.00     2.025
  8550.00     1.555
  8555.00     1.220
  8560.00     0.940
  8565.00     0.750
  8570.00     0.605
  8575.00     0.505
  8580.00     0.450
  8585.00     0.315
  8590.00     0.280
  8595.00     0.200
  8600.00     0.175
  8605.00     0.375
  8610.00     1.560
  8615.00     1.270
  8620.00     0.940
  8625.00     0.765
  8630.00     0.590
  8635.00     0.445
  8640.00     0.375
  8645.00     0.315
  8650.00     0.310
  8655.00     0.220
  8660.00     0.190
  8665.00     0.155
  8670.00     0.135
  8675.00     0.110
  8680.00     0.085
  8685.00     0.120
  8690.00     0.085
  8695.00     0.055
  8700.00     0.090

