#== Filter Data - Lambda 9 Spectrophotometer ==
#  Kitt Peak National Observatory - NOAO
#------------------------------------------------
#Filter: SDSS G #136 P4 .5/60/0.5 22.9C
#Date: 03/22/02   Time: 10:58:06  Operator: JDV
#cwl=  4750.58A  fwhm= 1395.73A  Tmax= 91.16% at  5005.00A
#Tcutoff=  2.00 %  Slitsize =  5 A
#fwhm spans 4052.72A to 5448.45A
#90%  spans 4477.71A to 5398.17A
#bw90 is  0.659; Tmin90/Tmax is  0.900
#No data smoothing
#
#Npts=  411     Disp=  5.00A/Interval
#*****
  3700.00    -0.005
  3705.00     0.000
  3710.00     0.000
  3715.00     0.000
  3720.00    -0.005
  3725.00     0.000
  3730.00     0.000
  3735.00     0.000
  3740.00    -0.005
  3745.00     0.000
  3750.00    -0.005
  3755.00     0.000
  3760.00    -0.005
  3765.00     0.000
  3770.00     0.000
  3775.00     0.000
  3780.00     0.000
  3785.00     0.005
  3790.00     0.025
  3795.00     0.050
  3800.00     0.080
  3805.00     0.135
  3810.00     0.205
  3815.00     0.315
  3820.00     0.470
  3825.00     0.675
  3830.00     0.935
  3835.00     1.255
  3840.00     1.645
  3845.00     2.005
  3850.00     2.415
  3855.00     2.785
  3860.00     3.220
  3865.00     3.645
  3870.00     4.205
  3875.00     4.845
  3880.00     5.745
  3885.00     6.865
  3890.00     8.280
  3895.00    10.020
  3900.00    12.070
  3905.00    14.230
  3910.00    16.105
  3915.00    17.400
  3920.00    17.950
  3925.00    17.915
  3930.00    17.535
  3935.00    17.045
  3940.00    16.710
  3945.00    16.605
  3950.00    16.775
  3955.00    17.210
  3960.00    18.230
  3965.00    19.590
  3970.00    21.300
  3975.00    23.685
  3980.00    26.510
  3985.00    29.940
  3990.00    33.470
  3995.00    37.045
  4000.00    40.100
  4005.00    42.490
  4010.00    44.060
  4015.00    44.650
  4020.00    44.615
  4025.00    44.125
  4030.00    43.700
  4035.00    43.435
  4040.00    43.585
  4045.00    44.010
  4050.00    44.865
  4055.00    46.175
  4060.00    47.795
  4065.00    49.780
  4070.00    51.850
  4075.00    53.900
  4080.00    55.895
  4085.00    57.490
  4090.00    58.510
  4095.00    59.145
  4100.00    59.305
  4105.00    59.260
  4110.00    58.795
  4115.00    58.385
  4120.00    58.135
  4125.00    57.760
  4130.00    57.880
  4135.00    58.265
  4140.00    58.875
  4145.00    59.700
  4150.00    60.930
  4155.00    62.180
  4160.00    63.540
  4165.00    64.740
  4170.00    66.125
  4175.00    67.155
  4180.00    67.920
  4185.00    68.245
  4190.00    68.630
  4195.00    68.585
  4200.00    68.295
  4205.00    68.040
  4210.00    67.735
  4215.00    67.415
  4220.00    67.065
  4225.00    66.985
  4230.00    67.085
  4235.00    67.480
  4240.00    67.815
  4245.00    68.570
  4250.00    69.210
  4255.00    69.815
  4260.00    70.535
  4265.00    71.075
  4270.00    71.315
  4275.00    71.795
  4280.00    71.690
  4285.00    71.700
  4290.00    71.460
  4295.00    71.105
  4300.00    70.680
  4305.00    70.235
  4310.00    69.650
  4315.00    69.355
  4320.00    69.290
  4325.00    69.020
  4330.00    69.220
  4335.00    69.320
  4340.00    69.835
  4345.00    70.415
  4350.00    71.070
  4355.00    71.835
  4360.00    72.765
  4365.00    73.600
  4370.00    74.615
  4375.00    75.550
  4380.00    76.335
  4385.00    77.130
  4390.00    77.815
  4395.00    78.410
  4400.00    78.735
  4405.00    78.805
  4410.00    79.095
  4415.00    79.195
  4420.00    79.250
  4425.00    79.200
  4430.00    79.305
  4435.00    79.210
  4440.00    79.270
  4445.00    79.665
  4450.00    79.720
  4455.00    80.140
  4460.00    80.220
  4465.00    80.760
  4470.00    81.310
  4475.00    81.720
  4480.00    82.310
  4485.00    82.790
  4490.00    83.345
  4495.00    83.905
  4500.00    84.230
  4505.00    84.525
  4510.00    84.560
  4515.00    85.085
  4520.00    84.985
  4525.00    85.085
  4530.00    85.125
  4535.00    85.095
  4540.00    84.955
  4545.00    84.905
  4550.00    84.990
  4555.00    84.925
  4560.00    85.065
  4565.00    85.085
  4570.00    85.125
  4575.00    85.250
  4580.00    85.420
  4585.00    85.615
  4590.00    85.840
  4595.00    86.010
  4600.00    86.280
  4605.00    86.560
  4610.00    86.800
  4615.00    86.910
  4620.00    86.975
  4625.00    87.110
  4630.00    87.230
  4635.00    87.255
  4640.00    87.250
  4645.00    87.150
  4650.00    87.280
  4655.00    87.195
  4660.00    87.160
  4665.00    87.035
  4670.00    86.935
  4675.00    86.975
  4680.00    87.000
  4685.00    86.900
  4690.00    86.860
  4695.00    86.815
  4700.00    86.800
  4705.00    86.930
  4710.00    86.940
  4715.00    86.975
  4720.00    86.930
  4725.00    87.200
  4730.00    87.180
  4735.00    87.370
  4740.00    87.400
  4745.00    87.615
  4750.00    87.710
  4755.00    87.765
  4760.00    87.910
  4765.00    87.985
  4770.00    88.215
  4775.00    88.195
  4780.00    88.525
  4785.00    88.700
  4790.00    88.850
  4795.00    89.020
  4800.00    89.390
  4805.00    89.710
  4810.00    89.780
  4815.00    89.970
  4820.00    90.190
  4825.00    90.495
  4830.00    90.605
  4835.00    90.545
  4840.00    90.825
  4845.00    90.730
  4850.00    91.010
  4855.00    90.880
  4860.00    90.840
  4865.00    90.645
  4870.00    90.575
  4875.00    90.290
  4880.00    90.200
  4885.00    89.855
  4890.00    89.605
  4895.00    89.390
  4900.00    89.175
  4905.00    88.865
  4910.00    88.770
  4915.00    88.690
  4920.00    88.530
  4925.00    88.385
  4930.00    88.320
  4935.00    88.520
  4940.00    88.560
  4945.00    88.685
  4950.00    88.945
  4955.00    89.140
  4960.00    89.335
  4965.00    89.705
  4970.00    90.165
  4975.00    90.300
  4980.00    90.600
  4985.00    90.825
  4990.00    91.040
  4995.00    91.070
  5000.00    91.135
  5005.00    91.155
  5010.00    91.015
  5015.00    90.740
  5020.00    90.320
  5025.00    90.140
  5030.00    89.570
  5035.00    89.035
  5040.00    88.475
  5045.00    87.895
  5050.00    87.305
  5055.00    86.740
  5060.00    86.230
  5065.00    85.660
  5070.00    85.215
  5075.00    84.865
  5080.00    84.540
  5085.00    84.290
  5090.00    84.330
  5095.00    84.320
  5100.00    84.325
  5105.00    84.575
  5110.00    84.825
  5115.00    85.290
  5120.00    85.630
  5125.00    86.165
  5130.00    86.655
  5135.00    87.130
  5140.00    87.685
  5145.00    88.205
  5150.00    88.565
  5155.00    89.070
  5160.00    89.230
  5165.00    89.290
  5170.00    89.435
  5175.00    89.095
  5180.00    89.135
  5185.00    89.050
  5190.00    88.615
  5195.00    88.385
  5200.00    88.065
  5205.00    87.870
  5210.00    87.530
  5215.00    87.285
  5220.00    87.160
  5225.00    87.145
  5230.00    87.295
  5235.00    87.305
  5240.00    87.565
  5245.00    87.765
  5250.00    88.275
  5255.00    88.535
  5260.00    89.120
  5265.00    89.425
  5270.00    89.635
  5275.00    89.715
  5280.00    89.710
  5285.00    89.615
  5290.00    89.405
  5295.00    88.815
  5300.00    88.305
  5305.00    87.645
  5310.00    86.710
  5315.00    85.840
  5320.00    85.110
  5325.00    84.395
  5330.00    83.910
  5335.00    83.290
  5340.00    82.995
  5345.00    82.680
  5350.00    82.845
  5355.00    82.780
  5360.00    83.055
  5365.00    83.275
  5370.00    83.565
  5375.00    83.550
  5380.00    83.565
  5385.00    83.315
  5390.00    82.800
  5395.00    82.375
  5400.00    81.845
  5405.00    81.430
  5410.00    81.375
  5415.00    81.390
  5420.00    81.795
  5425.00    81.970
  5430.00    81.005
  5435.00    76.985
  5440.00    68.525
  5445.00    55.720
  5450.00    41.010
  5455.00    27.945
  5460.00    18.370
  5465.00    11.865
  5470.00     7.660
  5475.00     4.980
  5480.00     3.260
  5485.00     2.175
  5490.00     1.480
  5495.00     1.025
  5500.00     0.715
  5505.00     0.510
  5510.00     0.365
  5515.00     0.270
  5520.00     0.200
  5525.00     0.150
  5530.00     0.110
  5535.00     0.085
  5540.00     0.060
  5545.00     0.050
  5550.00     0.035
  5555.00     0.030
  5560.00     0.020
  5565.00     0.020
  5570.00     0.020
  5575.00     0.010
  5580.00     0.015
  5585.00     0.005
  5590.00     0.000
  5595.00     0.000
  5600.00     0.005
  5605.00     0.000
  5610.00     0.000
  5615.00     0.000
  5620.00    -0.040
  5625.00     0.005
  5630.00     0.000
  5635.00     0.000
  5640.00    -0.005
  5645.00     0.000
  5650.00     0.000
  5655.00     0.000
  5660.00    -0.005
  5665.00     0.000
  5670.00     0.000
  5675.00     0.000
  5680.00     0.000
  5685.00     0.000
  5690.00    -0.005
  5695.00    -0.005
  5700.00     0.000
  5705.00     0.000
  5710.00    -0.005
  5715.00     0.000
  5720.00     0.000
  5725.00    -0.005
  5730.00     0.000
  5735.00     0.000
  5740.00     0.000
  5745.00     0.000
  5750.00     0.005

