#== Filter Data - Lambda 9 Spectrophotometer ==
#  Kitt Peak National Observatory - NOAO
#------------------------------------------------
#Filter: SDSS Z P10 .5/60/0.5 25.4C
#Date: 03/22/02   Time: 12:13:30  Operator: JDV
#cwl=     0.00A  fwhm=   0.00A  Tmax= 98.54% at  9420.00A
#Tcutoff=  2.00 %  Slitsize =  5 A
#Errms2: Data never reaches HI wavelength %%T cutoff.
#Errms3: Central wavelength & FWHM cannot be calculated.
#No data smoothing
#
#Npts=  801     Disp=  5.00A/Interval
#*****
  7000.00     0.000
  7005.00     0.000
  7010.00     0.000
  7015.00    -0.005
  7020.00     0.000
  7025.00     0.000
  7030.00     0.000
  7035.00    -0.005
  7040.00     0.000
  7045.00     0.000
  7050.00     0.000
  7055.00     0.000
  7060.00     0.000
  7065.00     0.000
  7070.00     0.000
  7075.00     0.000
  7080.00     0.000
  7085.00     0.000
  7090.00     0.000
  7095.00     0.000
  7100.00     0.000
  7105.00     0.000
  7110.00     0.000
  7115.00     0.000
  7120.00     0.000
  7125.00     0.000
  7130.00     0.000
  7135.00     0.000
  7140.00     0.000
  7145.00     0.000
  7150.00     0.000
  7155.00     0.000
  7160.00     0.000
  7165.00     0.000
  7170.00     0.000
  7175.00     0.000
  7180.00     0.000
  7185.00     0.000
  7190.00     0.000
  7195.00     0.000
  7200.00     0.000
  7205.00     0.000
  7210.00     0.000
  7215.00     0.000
  7220.00     0.000
  7225.00     0.000
  7230.00     0.000
  7235.00     0.000
  7240.00     0.000
  7245.00     0.000
  7250.00     0.000
  7255.00     0.000
  7260.00     0.000
  7265.00     0.000
  7270.00     0.000
  7275.00     0.000
  7280.00     0.000
  7285.00     0.000
  7290.00     0.000
  7295.00     0.000
  7300.00     0.000
  7305.00     0.000
  7310.00     0.000
  7315.00    -0.005
  7320.00     0.000
  7325.00    -0.005
  7330.00     0.000
  7335.00     0.005
  7340.00     0.000
  7345.00     0.000
  7350.00     0.000
  7355.00     0.000
  7360.00     0.000
  7365.00     0.000
  7370.00     0.000
  7375.00     0.000
  7380.00     0.000
  7385.00     0.000
  7390.00     0.000
  7395.00     0.000
  7400.00     0.000
  7405.00     0.000
  7410.00     0.000
  7415.00     0.000
  7420.00     0.000
  7425.00     0.000
  7430.00     0.000
  7435.00     0.000
  7440.00     0.005
  7445.00     0.000
  7450.00     0.005
  7455.00     0.000
  7460.00     0.000
  7465.00     0.005
  7470.00     0.005
  7475.00     0.005
  7480.00     0.005
  7485.00     0.005
  7490.00     0.005
  7495.00     0.005
  7500.00     0.005
  7505.00     0.005
  7510.00     0.005
  7515.00     0.010
  7520.00     0.010
  7525.00     0.005
  7530.00     0.010
  7535.00     0.005
  7540.00     0.010
  7545.00     0.010
  7550.00     0.010
  7555.00     0.010
  7560.00     0.010
  7565.00     0.010
  7570.00     0.015
  7575.00     0.010
  7580.00     0.010
  7585.00     0.010
  7590.00     0.010
  7595.00     0.015
  7600.00     0.010
  7605.00     0.015
  7610.00     0.020
  7615.00     0.015
  7620.00     0.015
  7625.00     0.025
  7630.00     0.025
  7635.00     0.020
  7640.00     0.025
  7645.00     0.030
  7650.00     0.030
  7655.00     0.030
  7660.00     0.030
  7665.00     0.025
  7670.00     0.035
  7675.00     0.035
  7680.00     0.040
  7685.00     0.045
  7690.00     0.045
  7695.00     0.055
  7700.00     0.050
  7705.00     0.050
  7710.00     0.050
  7715.00     0.055
  7720.00     0.060
  7725.00     0.065
  7730.00     0.060
  7735.00     0.070
  7740.00     0.075
  7745.00     0.065
  7750.00     0.085
  7755.00     0.100
  7760.00     0.100
  7765.00     0.110
  7770.00     0.110
  7775.00     0.120
  7780.00     0.125
  7785.00     0.120
  7790.00     0.135
  7795.00     0.145
  7800.00     0.155
  7805.00     0.165
  7810.00     0.170
  7815.00     0.175
  7820.00     0.195
  7825.00     0.210
  7830.00     0.210
  7835.00     0.220
  7840.00     0.245
  7845.00     0.270
  7850.00     0.290
  7855.00     0.305
  7860.00     0.335
  7865.00     0.360
  7870.00     0.370
  7875.00     0.390
  7880.00     0.430
  7885.00     0.460
  7890.00     0.475
  7895.00     0.525
  7900.00     0.565
  7905.00     0.585
  7910.00     0.640
  7915.00     0.670
  7920.00     0.725
  7925.00     0.775
  7930.00     0.820
  7935.00     0.880
  7940.00     0.975
  7945.00     1.020
  7950.00     1.135
  7955.00     1.190
  7960.00     1.210
  7965.00     1.330
  7970.00     1.410
  7975.00     1.525
  7980.00     1.660
  7985.00     1.760
  7990.00     1.880
  7995.00     1.945
  8000.00     2.090
  8005.00     2.250
  8010.00     2.370
  8015.00     2.560
  8020.00     2.705
  8025.00     3.010
  8030.00     3.100
  8035.00     3.345
  8040.00     3.495
  8045.00     3.735
  8050.00     3.995
  8055.00     4.245
  8060.00     4.605
  8065.00     4.820
  8070.00     5.185
  8075.00     5.325
  8080.00     5.770
  8085.00     6.170
  8090.00     6.535
  8095.00     7.060
  8100.00     7.365
  8105.00     7.835
  8110.00     8.360
  8115.00     8.730
  8120.00     9.345
  8125.00     9.860
  8130.00    10.370
  8135.00    10.990
  8140.00    11.540
  8145.00    12.255
  8150.00    12.680
  8155.00    13.660
  8160.00    14.130
  8165.00    15.045
  8170.00    15.555
  8175.00    16.365
  8180.00    16.990
  8185.00    17.925
  8190.00    18.510
  8195.00    19.475
  8200.00    20.300
  8205.00    21.345
  8210.00    22.000
  8215.00    23.350
  8220.00    24.230
  8225.00    25.245
  8230.00    26.170
  8235.00    26.925
  8240.00    28.025
  8245.00    28.830
  8250.00    29.595
  8255.00    31.290
  8260.00    32.325
  8265.00    33.380
  8270.00    34.420
  8275.00    35.170
  8280.00    36.340
  8285.00    37.540
  8290.00    38.465
  8295.00    39.805
  8300.00    40.410
  8305.00    42.030
  8310.00    42.855
  8315.00    44.215
  8320.00    45.235
  8325.00    46.125
  8330.00    47.200
  8335.00    48.460
  8340.00    49.590
  8345.00    50.125
  8350.00    51.095
  8355.00    52.680
  8360.00    53.385
  8365.00    54.585
  8370.00    55.345
  8375.00    56.205
  8380.00    57.100
  8385.00    57.830
  8390.00    58.990
  8395.00    60.280
  8400.00    61.170
  8405.00    62.920
  8410.00    62.355
  8415.00    64.380
  8420.00    64.430
  8425.00    65.310
  8430.00    66.695
  8435.00    67.100
  8440.00    68.485
  8445.00    69.150
  8450.00    69.690
  8455.00    71.005
  8460.00    71.570
  8465.00    71.040
  8470.00    72.830
  8475.00    72.985
  8480.00    73.875
  8485.00    74.180
  8490.00    76.100
  8495.00    76.575
  8500.00    76.565
  8505.00    77.630
  8510.00    78.845
  8515.00    78.345
  8520.00    78.895
  8525.00    78.805
  8530.00    80.735
  8535.00    80.655
  8540.00    81.540
  8545.00    82.430
  8550.00    81.965
  8555.00    82.170
  8560.00    83.220
  8565.00    82.375
  8570.00    83.450
  8575.00    84.045
  8580.00    85.130
  8585.00    84.885
  8590.00    85.455
  8595.00    86.045
  8600.00    86.665
  8605.00    87.050
  8610.00    86.990
  8615.00    87.285
  8620.00    87.640
  8625.00    87.950
  8630.00    88.255
  8635.00    88.645
  8640.00    88.865
  8645.00    89.245
  8650.00    89.465
  8655.00    89.740
  8660.00    89.975
  8665.00    90.195
  8670.00    90.445
  8675.00    90.670
  8680.00    90.865
  8685.00    91.175
  8690.00    91.345
  8695.00    91.590
  8700.00    91.780
  8705.00    91.955
  8710.00    92.210
  8715.00    92.375
  8720.00    92.535
  8725.00    92.730
  8730.00    92.925
  8735.00    93.035
  8740.00    93.165
  8745.00    93.340
  8750.00    93.485
  8755.00    93.635
  8760.00    93.760
  8765.00    94.010
  8770.00    94.075
  8775.00    94.235
  8780.00    94.375
  8785.00    94.520
  8790.00    94.575
  8795.00    94.685
  8800.00    94.860
  8805.00    94.915
  8810.00    95.015
  8815.00    95.180
  8820.00    95.220
  8825.00    95.325
  8830.00    95.405
  8835.00    95.505
  8840.00    95.635
  8845.00    95.720
  8850.00    95.730
  8855.00    95.860
  8860.00    95.975
  8865.00    96.040
  8870.00    96.080
  8875.00    96.090
  8880.00    96.195
  8885.00    96.250
  8890.00    96.285
  8895.00    96.400
  8900.00    96.440
  8905.00    96.505
  8910.00    96.615
  8915.00    96.650
  8920.00    96.750
  8925.00    96.740
  8930.00    96.765
  8935.00    96.910
  8940.00    96.900
  8945.00    96.970
  8950.00    96.970
  8955.00    97.040
  8960.00    97.060
  8965.00    97.170
  8970.00    97.165
  8975.00    97.225
  8980.00    97.265
  8985.00    97.360
  8990.00    97.350
  8995.00    97.345
  9000.00    97.355
  9005.00    97.415
  9010.00    97.455
  9015.00    97.405
  9020.00    97.430
  9025.00    97.505
  9030.00    97.630
  9035.00    97.595
  9040.00    97.605
  9045.00    97.660
  9050.00    97.715
  9055.00    97.670
  9060.00    97.710
  9065.00    97.705
  9070.00    97.805
  9075.00    97.800
  9080.00    97.835
  9085.00    97.890
  9090.00    97.895
  9095.00    97.880
  9100.00    97.895
  9105.00    97.940
  9110.00    97.915
  9115.00    97.930
  9120.00    97.990
  9125.00    97.960
  9130.00    98.035
  9135.00    98.030
  9140.00    98.030
  9145.00    98.045
  9150.00    98.025
  9155.00    98.035
  9160.00    98.135
  9165.00    98.145
  9170.00    98.165
  9175.00    98.215
  9180.00    98.140
  9185.00    98.215
  9190.00    98.280
  9195.00    98.195
  9200.00    98.225
  9205.00    98.245
  9210.00    98.195
  9215.00    98.280
  9220.00    98.275
  9225.00    98.250
  9230.00    98.275
  9235.00    98.280
  9240.00    98.380
  9245.00    98.395
  9250.00    98.320
  9255.00    98.290
  9260.00    98.340
  9265.00    98.225
  9270.00    98.360
  9275.00    98.310
  9280.00    98.375
  9285.00    98.445
  9290.00    98.410
  9295.00    98.345
  9300.00    98.430
  9305.00    98.405
  9310.00    98.455
  9315.00    98.430
  9320.00    98.325
  9325.00    98.435
  9330.00    98.460
  9335.00    98.380
  9340.00    98.425
  9345.00    98.435
  9350.00    98.360
  9355.00    98.430
  9360.00    98.405
  9365.00    98.480
  9370.00    98.480
  9375.00    98.360
  9380.00    98.435
  9385.00    98.460
  9390.00    98.460
  9395.00    98.455
  9400.00    98.485
  9405.00    98.390
  9410.00    98.510
  9415.00    98.460
  9420.00    98.540
  9425.00    98.485
  9430.00    98.415
  9435.00    98.495
  9440.00    98.520
  9445.00    98.360
  9450.00    98.525
  9455.00    98.425
  9460.00    98.420
  9465.00    98.450
  9470.00    98.445
  9475.00    98.405
  9480.00    98.505
  9485.00    98.465
  9490.00    98.535
  9495.00    98.530
  9500.00    98.490
  9505.00    98.490
  9510.00    98.465
  9515.00    98.420
  9520.00    98.470
  9525.00    98.405
  9530.00    98.480
  9535.00    98.505
  9540.00    98.530
  9545.00    98.470
  9550.00    98.485
  9555.00    98.450
  9560.00    98.500
  9565.00    98.500
  9570.00    98.425
  9575.00    98.420
  9580.00    98.450
  9585.00    98.460
  9590.00    98.405
  9595.00    98.465
  9600.00    98.435
  9605.00    98.405
  9610.00    98.465
  9615.00    98.435
  9620.00    98.425
  9625.00    98.535
  9630.00    98.460
  9635.00    98.535
  9640.00    98.530
  9645.00    98.440
  9650.00    98.475
  9655.00    98.405
  9660.00    98.395
  9665.00    98.435
  9670.00    98.360
  9675.00    98.385
  9680.00    98.460
  9685.00    98.475
  9690.00    98.455
  9695.00    98.470
  9700.00    98.395
  9705.00    98.480
  9710.00    98.450
  9715.00    98.425
  9720.00    98.440
  9725.00    98.430
  9730.00    98.465
  9735.00    98.480
  9740.00    98.430
  9745.00    98.485
  9750.00    98.475
  9755.00    98.470
  9760.00    98.390
  9765.00    98.385
  9770.00    98.365
  9775.00    98.370
  9780.00    98.430
  9785.00    98.480
  9790.00    98.490
  9795.00    98.440
  9800.00    98.485
  9805.00    98.495
  9810.00    98.465
  9815.00    98.430
  9820.00    98.380
  9825.00    98.380
  9830.00    98.420
  9835.00    98.465
  9840.00    98.410
  9845.00    98.420
  9850.00    98.390
  9855.00    98.470
  9860.00    98.330
  9865.00    98.315
  9870.00    98.310
  9875.00    98.395
  9880.00    98.380
  9885.00    98.390
  9890.00    98.420
  9895.00    98.445
  9900.00    98.380
  9905.00    98.375
  9910.00    98.395
  9915.00    98.365
  9920.00    98.435
  9925.00    98.430
  9930.00    98.370
  9935.00    98.360
  9940.00    98.365
  9945.00    98.340
  9950.00    98.385
  9955.00    98.325
  9960.00    98.270
  9965.00    98.375
  9970.00    98.355
  9975.00    98.400
  9980.00    98.430
  9985.00    98.370
  9990.00    98.465
  9995.00    98.335
 10000.00    98.310
 10005.00    98.285
 10010.00    98.355
 10015.00    98.310
 10020.00    98.355
 10025.00    98.330
 10030.00    98.370
 10035.00    98.345
 10040.00    98.295
 10045.00    98.290
 10050.00    98.310
 10055.00    98.295
 10060.00    98.255
 10065.00    98.290
 10070.00    98.280
 10075.00    98.310
 10080.00    98.305
 10085.00    98.255
 10090.00    98.295
 10095.00    98.240
 10100.00    98.205
 10105.00    98.270
 10110.00    98.200
 10115.00    98.230
 10120.00    98.335
 10125.00    98.290
 10130.00    98.230
 10135.00    98.240
 10140.00    98.285
 10145.00    98.240
 10150.00    97.885
 10155.00    98.275
 10160.00    98.270
 10165.00    98.280
 10170.00    98.210
 10175.00    98.250
 10180.00    98.150
 10185.00    98.235
 10190.00    98.140
 10195.00    98.100
 10200.00    98.155
 10205.00    98.145
 10210.00    98.140
 10215.00    98.235
 10220.00    98.150
 10225.00    98.185
 10230.00    98.200
 10235.00    98.185
 10240.00    98.200
 10245.00    98.110
 10250.00    98.115
 10255.00    98.125
 10260.00    98.090
 10265.00    98.125
 10270.00    98.115
 10275.00    98.110
 10280.00    98.125
 10285.00    98.060
 10290.00    98.095
 10295.00    98.115
 10300.00    98.085
 10305.00    98.025
 10310.00    98.070
 10315.00    98.065
 10320.00    97.985
 10325.00    98.015
 10330.00    97.990
 10335.00    98.050
 10340.00    98.040
 10345.00    97.960
 10350.00    98.025
 10355.00    97.935
 10360.00    98.020
 10365.00    98.010
 10370.00    97.930
 10375.00    97.925
 10380.00    98.030
 10385.00    97.955
 10390.00    98.000
 10395.00    97.995
 10400.00    97.975
 10405.00    97.950
 10410.00    97.930
 10415.00    97.895
 10420.00    97.870
 10425.00    97.900
 10430.00    97.890
 10435.00    97.900
 10440.00    97.860
 10445.00    97.950
 10450.00    97.945
 10455.00    97.865
 10460.00    97.810
 10465.00    97.885
 10470.00    97.860
 10475.00    97.840
 10480.00    97.810
 10485.00    97.810
 10490.00    97.855
 10495.00    97.830
 10500.00    97.760
 10505.00    97.725
 10510.00    97.740
 10515.00    97.735
 10520.00    97.770
 10525.00    97.725
 10530.00    97.725
 10535.00    97.790
 10540.00    97.695
 10545.00    97.725
 10550.00    97.745
 10555.00    97.695
 10560.00    97.655
 10565.00    97.680
 10570.00    97.665
 10575.00    97.690
 10580.00    97.635
 10585.00    97.645
 10590.00    97.610
 10595.00    97.635
 10600.00    97.705
 10605.00    97.620
 10610.00    97.675
 10615.00    97.530
 10620.00    97.615
 10625.00    97.585
 10630.00    97.565
 10635.00    97.555
 10640.00    97.615
 10645.00    97.505
 10650.00    97.520
 10655.00    97.520
 10660.00    97.510
 10665.00    97.535
 10670.00    97.540
 10675.00    97.490
 10680.00    97.490
 10685.00    97.495
 10690.00    97.465
 10695.00    97.460
 10700.00    97.440
 10705.00    97.460
 10710.00    97.415
 10715.00    97.385
 10720.00    97.350
 10725.00    97.375
 10730.00    97.335
 10735.00    97.320
 10740.00    97.365
 10745.00    97.300
 10750.00    97.315
 10755.00    97.340
 10760.00    97.385
 10765.00    97.325
 10770.00    97.360
 10775.00    97.235
 10780.00    97.290
 10785.00    97.275
 10790.00    97.310
 10795.00    97.230
 10800.00    97.240
 10805.00    97.270
 10810.00    97.250
 10815.00    97.220
 10820.00    97.230
 10825.00    97.180
 10830.00    97.205
 10835.00    97.240
 10840.00    97.225
 10845.00    97.155
 10850.00    97.125
 10855.00    97.100
 10860.00    97.140
 10865.00    97.015
 10870.00    97.110
 10875.00    97.155
 10880.00    97.145
 10885.00    97.075
 10890.00    97.035
 10895.00    96.985
 10900.00    97.015
 10905.00    97.040
 10910.00    97.020
 10915.00    97.035
 10920.00    97.010
 10925.00    97.005
 10930.00    97.000
 10935.00    97.035
 10940.00    96.945
 10945.00    96.945
 10950.00    96.925
 10955.00    96.920
 10960.00    96.850
 10965.00    96.885
 10970.00    96.965
 10975.00    96.880
 10980.00    96.895
 10985.00    96.825
 10990.00    96.730
 10995.00    96.720
 11000.00    96.730

